charge,dose
52.80486416917952,0.0
58.22962063250261,0.0002
58.72962063250261,0.04136066505046631
62.03062219208417,0.0744518990083144
65.73909276312625,0.1116278485124716
69.44756333416834,0.1488037980166288
73.15603390521042,0.1843209842141824
76.8645044762525,0.2202484418408458
80.57297504729459,0.256719943512297
84.28144561833668,0.293739240055672
87.98991618937876,0.3313100822981069
91.69838676042085,0.3694362210667377
95.40685733146292,0.4081214071887005
99.115327902505,0.447369391491131
102.82379847354709,0.4871839248011655
106.53226904458916,0.52756875794594
110.24073961563126,0.5685276417525904
113.94921018667334,0.6122457161441711
117.65768075771544,0.6614441250981948
121.36615132875752,0.7112278371955025
125.0746218997996,0.7616006032632303
128.78309247084167,0.8125661741285138
132.49156304188375,0.8641283006184896
136.20003361292584,0.9162907335602932
139.90850418396792,0.9690572237810612
143.61697475501,1.022431522107929
147.3254453260521,1.0764173793680247
151.03391589709418,1.1309307933763726
154.74238646813626,1.1859235795422347
158.45085703917837,1.2474035156441436
162.15932761022043,1.3104287971117647
165.86779818126251,1.37421634015543
169.5762687523046,1.4387944244271478
173.28473932334668,1.5041828611981587
176.99320989438877,1.5703876488969368
180.70168046543083,1.6372308083092515
184.4101510364729,1.704651949804966
188.11862160751505,1.7726486987747756
191.8270921785571,1.8452578163238424
195.5355627495992,1.919698786320116
199.24403332064128,1.9947020458140516
202.95250389168336,2.070232671567073
206.66097446272545,2.146296197229951
210.36944503376756,2.2229386297373104
214.0779156048096,2.3001766039365954
217.7863861758517,2.3779275115838896
221.4948567468938,2.459451779715559
225.20332731793587,2.541743510513665
228.911797888978,2.62450803493911
232.62026846002,2.707752709756128
236.3287390310621,2.791502173397352
240.03720960210416,2.875775297234502
243.74568017314627,2.960571512039212
247.45415074418835,3.04846623374445
251.16262131523044,3.1377455117540105
254.87109188627247,3.227546897939344
258.57956245731464,3.3178689984584837
262.2880330283567,3.4087112305681977
265.9965035993988,3.500073011525255
269.7049741704409,3.5923909198687047
273.413444741483,3.6880171213634263
277.12191531252506,3.784161123475796
280.83038588356715,3.880822343462582
284.53885645460923,3.978000198580552
288.2473270256513,4.075694106086473
291.9557975966934,4.173903483237115
295.6642681677355,4.275539493076648
299.3727387387776,4.377803273175504
303.08120930981966,4.480580774689384
306.78967988086174,4.583871414875057
310.4981504519038,4.687674610989292
314.2066210229459,4.792426342942345
317.915091593988,4.900100334181148
321.6235621650301,5.008285133118817
325.33203273607216,5.1169801570121205
329.04050330711425,5.2261848231178245
332.74897387815633,5.335898548692699
336.4574444491984,5.447873714267091
340.1659150202405,5.561302974203377
343.8743855912826,5.675239545379137
347.5828561623247,5.789682845051141
351.2913267333668,5.904632290476156
354.99979730440884,6.021133313473235
358.70826787545093,6.139664877136444
362.416738446493,6.258700838322969
366.1252090175351,6.378240614289577
369.8336795885772,6.498283622293038
373.54215015961927,6.619783146917806
377.25062073066135,6.74327136047315
380.9590913017034,6.867261057835648
384.6675618727455,6.991751656262073
388.3760324437876,7.116742447968006
392.0845030148297,7.243488512697446
395.7929735858718,7.371656786252398
399.50144415691386,7.500295117313366
403.209914727956,7.629397062801745
406.918385298998,7.75895874921342
410.62685587004,7.890957588974276
414.3353264410821,8.023586432631742
418.0437970121242,8.156677335726913
421.7522675831663,8.290235232679212
425.46073815420834,8.425248451247313
429.1692087252504,8.56210358786242
432.8776792962925,8.699451015397221
436.5861498673346,8.837302200835147
440.2946204383767,8.97585661445829
444.0030910094188,9.117364973836922
447.71156158046085,9.259419973699153
451.4200321515029,9.40203611698907
455.128502722545,9.545229993563725
458.8369732935871,9.691581569992543
462.5454438646292,9.838884790354143
466.2539144356713,9.986818820439964
469.96238500671336,10.135402039655173
473.67085557775545,10.287304988014808
477.37932614879753,10.440330351955913
481.0877967198396,10.594060406945196
484.7962672908817,10.748513381281349
488.5047378619238,10.906861833138825
492.2132084329658,11.065983281318632
495.921679004008,11.225879908758804
499.6301495750501,11.387473576863933
503.3386201460921,11.552153612271656
507.0470907171342,11.717655121920275
510.7555612881763,11.883991709735
514.4640318592184,12.053371371192664
518.1725024302605,12.224485953206262
521.8809730013026,12.3964694916943
525.5894435723446,12.570133955737337
529.2979141433867,12.746834920034082
533.0063847144288,12.924426227999875
536.7148552854709,13.10291178326807
540.423325856513,13.284914384953687
544.1317964275551,13.467973554769912
547.8402669985971,13.651927713929124
551.5487375696392,13.838605522438868
555.2572081406813,14.026904980456084
558.9656787117234,14.21608186220119
562.6741492827655,14.407464970677257
566.3826198538076,14.600705888176297
570.0910904248497,14.794786080565125
573.7995609958917,14.99080431229336
577.5080315669338,15.188715706641224
581.2165021379759,15.387415877923104
584.924972709018,15.58794698375834
588.6334432800601,15.790269821020896
592.3419138511022,15.99335837416874
596.0503844221442,16.19832127584894
599.7588549931863,16.4048742582211
603.4673255642284,16.612169895429812
607.1757961352705,16.82151347923496
610.8842667063126,17.032176197748846
614.5927372773547,17.243558510050562
618.3012078483968,17.45718004170535
622.0096784194388,17.671754519232486
625.7181489904809,17.887159063968575
629.426619561523,18.1048417529278
633.1350901325651,18.32320560059363
636.8435607036072,18.54279551095244
640.5520312746493,18.76412497601074
644.2605018456914,18.986112493066106
647.9689724167334,19.20976843980804
651.6774429877755,19.43463758834862
655.3859135588176,19.660141727837544
659.0943841298597,19.88772566558349
662.8028547009018,20.11595754348955
666.5113252719439,20.34531563902256
670.219795842986,20.57621009108797
673.928266414028,20.807701099020505
677.6367369850701,21.04084501813473
681.3452075561122,21.27490014451234
685.0536781271543,21.50979637739982
688.7621486981964,21.74631558381362
692.4706192692385,21.98339291101334
696.1790898402805,22.221866746200703
699.8875604113226,22.46130087819788
703.5960309823647,22.701469582704583
707.3045015534068,22.94317829236641
711.0129721244489,23.18538520610003
714.721442695491,23.428839375907348
718.429913266533,23.67310802163944
722.1383838375751,23.918054763484
725.8468544086172,24.164234835523544
729.5553249796593,24.410839250883544
733.2637955507014,24.658579894076347
736.9722661217435,24.906910299272244
740.6807366927856,25.15587205218492
744.3892072638276,25.40562281298186
748.0976778348697,25.655708738319824
751.8061484059118,25.90673032124063
755.5146189769539,26.15811091940519
759.223089547996,26.41025679856065
762.9315601190381,26.663083357332685
766.64003069008,26.916505093016436
770.3485012611221,27.17115024484002
774.0569718321642,27.42627900909085
777.7654424032063,27.68300348818142
781.4739129742484,27.94052280648585
785.1823835452905,28.199537193469325
788.8908541163325,28.460115309250742
792.5993246873746,28.7218610593632
796.3077952584167,28.98612739276087
800.0162658294588,29.251299003607294
803.7247364005009,29.519829911276176
807.433206971543,29.7896116928587
811.1416775425851,30.062517742377217
814.8501481136271,30.337493470058504
818.5586186846692,30.61544572857159
822.2670892557113,30.896332646177434
825.9755598267534,31.18002984973057
829.6840303977955,31.467404657709704
833.3925009688376,31.757517500428477
837.1009715398797,32.05180500901827
840.8094421109217,32.34890949401158
844.5179126819638,32.65049686109364
848.2263832530059,32.95515365740785
851.934853824048,33.2643400507347
855.6433243950901,33.577010550910586
859.3517949661322,33.89399239590311
863.0602655371742,34.215021379357054
866.7687361082163,34.53990869904673
870.4772066792584,34.869562581139235
874.1856772503005,35.20243204417755
877.8941478213426,35.540778665064146
881.6026183923847,35.8821120139614
885.3110889634268,36.228535106606415
889.0195595344688,36.5785742224101
892.7280301055109,36.9324809636358
896.436500676553,37.29083497901748
900.1449712475951,37.65224381211544
903.8534418186372,38.0182525890832
907.5619123896792,38.38755838754519
911.2703829607212,38.76001782372417
914.9788535317634,39.13665700020425
918.6873241028056,39.51610771493711
922.3957946738476,39.89885625074838
926.1042652448896,40.285074006772
929.8127358159318,40.67392379464231
933.521206386974,41.06597118848576
937.229676958016,41.46111232077848
940.938147529058,41.85876301247444
944.6466181001,42.25938362971063
948.3550886711422,42.6629120522589
952.0635592421844,43.068813754041855
955.7720298132264,43.4773504143932
959.4805003842685,43.88870934642709
963.1889709553104,44.30231021276326
966.8974415263526,44.71820097699356
970.6059120973948,45.13678794471861
974.3143826684368,45.55748736779093
978.0228532394788,45.98025831608327
981.731323810521,46.40535495434269
985.439794381563,46.83255139878084
989.1482649526052,47.261612638938274
992.8567355236472,47.69255695581583
996.5652060946892,48.12552225636819
1000.2736766657314,48.56017485864538
1003.9821472367736,48.99644320113504
1007.6906178078156,49.43435981775061
1011.3990883788576,49.87383425809463
1015.1075589498996,50.31470787366734
1018.8160295209418,50.75694217645483
1022.524500091984,51.20056743073681
1026.232970663026,51.6454474740634
1029.9414412340682,52.09149695227422
1033.6499118051102,52.53869764880215
1037.3583823761523,52.98709693246487
1041.0668529471943,53.43656287131554
1044.7753235182363,53.88705986271437
1048.4837940892785,54.33858683794385
1052.1922646603207,54.791198974408445
1055.900735231363,55.24481667834949
1059.6092058024049,55.69940731004253
1063.3176763734468,56.154983362185135
1067.026146944489,56.61163102185488
1070.734617515531,57.06933655509252
1074.4430880865732,57.528035166433895
1078.1515586576152,57.98776766789058
1081.8600292286571,58.44863670570288
1085.568499799699,58.91073331892761
1089.2769703707413,59.37393209742086
1092.9854409417835,59.8383003419339
1096.6939115128257,60.30390749650415
1100.4023820838677,60.77097214327556
1104.1108526549096,61.23939070437627
1107.8193232259518,61.70917323680514
1111.5277937969938,62.18038999659817
1115.236264368036,62.65314306396593
1118.944734939078,63.12773115969033
1122.6532055101202,63.60392623881704
1126.3616760811622,64.08182041259737
1130.0701466522044,64.56148888828669
1133.7786172232463,65.04301061872016
1137.4870877942883,65.52671419815522
1141.1955583653305,66.01238896822355
1144.9040289363727,66.5001206309234
1148.612499507415,66.9899700447304
1152.3209700784569,67.48197153802539
1156.0294406494988,67.97636149403233
1159.737911220541,68.4730990024346
1163.446381791583,68.97220296353166
1167.1548523626252,69.4737187127981
1170.8633229336672,69.97765766171051
1174.5717935047094,70.48402218400184
1178.2802640757511,70.99297986726928
1181.9887346467935,71.50458513353169
1185.6972052178355,72.01874233343653
1189.4056757888775,72.5355466455986
1193.1141463599197,73.05504358086674
1196.822616930962,73.57724977239167
1200.531087502004,74.10218689662025
1204.239558073046,74.62989163302339
1207.948028644088,75.1605843212892
1211.6564992151302,75.69416428524663
1215.3649697861722,76.23065942508669
1219.0734403572144,76.77016774533271
1222.7819109282564,77.31269930812772
1226.4903814992986,77.85827559866516
1230.1988520703403,78.40694375282425
1233.9073226413827,78.9587508662446
1237.6157932124247,79.51374396199309
1241.324263783467,80.0719699578595
1245.0327343545089,80.6334756333531
1248.741204925551,81.1983075964751
1252.449675496593,81.7665738470015
1256.1581460676352,82.3382776937246
1259.8666166386772,82.91343861888132
1263.5750872097194,83.4921126100383
1267.2835577807614,84.07435310886646
1270.9920283518036,84.6602106780357
1274.7004989228456,85.24974516559817
1278.4089694938878,85.84299947081215
1282.1174400649295,86.44001947976562
1285.825910635972,87.04085772224703
1289.534381207014,87.64556349990559
1293.242851778056,88.25418619473093
1296.951322349098,88.86677687973773
1300.6597929201405,89.48336476111889
1304.3682634911822,90.10398182032704
1308.0767340622244,90.72865559197828
1311.7852046332664,91.357484407211
1315.4936752043086,91.99044299903002
1319.2021457753506,92.62751569282202
1322.9106163463928,93.26870736896464
1326.6190869174347,93.91401860867757
1330.327557488477,94.5634639674696
1334.036028059519,95.21707955928365
1337.744498630561,95.87483375395476
1341.452969201603,96.53668041898226
1345.1614397726453,97.20264456763572
1348.8699103436873,97.87276901434144
1352.5783809147297,98.54712866767429
1356.2868514857714,99.2255702846342
1359.9953220568136,99.90809301941609
1363.7037926278556,100.59469843127914
1367.4122631988978,101.28528492161534
1371.1207337699398,101.97994340209756
1374.829204340982,102.67870628524196
1378.537674912024,103.38161379817028
1382.246145483066,104.0885518465954
1385.954616054108,104.79944412189091
1389.6630866251503,105.51433449096456
1393.3715571961925,106.23326949275894
1397.0800277672345,106.95639040627978
1400.7884983382764,107.6835445259624
1404.4969689093186,108.41464804561171
1408.2054394803606,109.14982885326444
1411.9139100514028,109.88919237408986
1415.6223806224448,110.6327216758316
1419.330851193487,111.38031577087136
1423.039321764529,112.13205065694513
1426.7477923355711,112.88806204521836
1430.4562629066131,113.648372736523
1434.164733477655,114.41295984306863
1437.8732040486973,115.18181567262556
1441.5816746197395,115.95522259400197
1445.2901451907817,116.73313924853484
1448.9986157618237,117.51548752435554
1452.7070863328656,118.3025338516494
1456.4155569039078,119.09439886941078
1460.1240274749498,119.89086170111204
1463.832498045992,120.69222900189251
1467.540968617034,121.49872216716916
1471.2494391880762,122.30992018058966
1474.957909759118,123.12642755620249
1478.66638033016,123.94820725483343
1482.3748509012023,124.77490778918543
1486.0833214722445,125.6073087878119
1489.7917920432865,126.44479569101917
1493.5002626143284,127.28789553044136
1497.2087331853706,128.13666093115165
1500.9172037564126,128.99073508992888
1504.6256743274548,129.85089688582863
1508.3341448984968,130.71633107384065
1512.042615469539,131.58810847381653
1515.751086040581,132.46525789574503
1519.4595566116232,133.34888649241162
1523.1680271826651,134.2380816326878
1526.876497753707,135.13380486988387
1530.5849683247493,136.03535723483915
1534.2934388957915,136.94341800806217
1538.0019094668337,137.8576273999724
1541.7103800378757,138.7782582479972
1545.4188506089176,139.70542151292602
1549.1273211799598,140.63899492261947
1552.8357917510018,141.57925465600013
1556.544262322044,142.52609737525026
1560.252732893086,143.47969820287548
1563.9612034641282,144.44015090674307
1567.66967403517,145.40741250148648
1571.3781446062123,146.38164716482453
1575.0866151772543,147.36290370076338
1578.7950857482963,148.35122103299773
1582.5035563193385,149.3467000623021
1586.212026890381,150.3494089942186
1589.9204974614229,151.3594112229431
1593.6289680324649,152.37674459578108
1597.3374386035068,153.40155005187137
1601.045909174549,154.43385948067768
1604.754379745591,155.4737769627357
1608.4628503166332,156.5212393774477
1612.1713208876752,157.5765196747954
1615.8797914587174,158.63955577152035
1619.588262029759,159.71046902547494
1623.2967326008015,160.78903468894418
1627.0052031718435,161.875266230738
1630.7136737428857,162.96915542140687
1634.4221443139277,164.07068556031302
1638.13061488497,165.18011650254817
1641.8390854560118,166.29739881929595
1645.547556027054,167.42224046072795
1649.256026598096,168.55455832951415
1652.9644971691382,169.6943934702877
1656.6729677401802,170.84178551387754
1660.3814383112224,171.99689024679742
1664.0899088822644,173.1598887153808
1667.7983794533066,174.33094648478902
1671.5068500243483,175.51029072261449
1675.2153205953907,176.698240733736
1678.9237911664327,177.8951993555537
1682.632261737475,179.1016626641456
1686.3407323085169,180.3181709742111
1690.049202879559,181.54533010955524
1693.757673450601,182.78379902304908
1697.4661440216432,184.0342779883272
1701.1746145926852,185.29749941836036
1704.8830851637274,186.57421859728112
1708.5915557347694,187.8652043997488
1712.3000263058116,189.17147239566884
1716.0084968768535,190.4940607930953
1719.7169674478955,191.83337565827213
1723.4254380189377,193.19021364293152
1727.13390858998,194.565218459037
1730.842379161022,195.96041499401423
1734.550849732064,197.37548277756963
1738.259320303106,198.81079119488288
1741.9677908741482,200.26894902558644
1745.6762614451902,201.7480658708879
1749.3847320162324,203.2518090225363
1753.0932025872744,204.77753999747603
1756.8016731583166,206.32908271223204
1760.5101437293586,207.9044747493076
1764.2186143004008,209.5047698024952
1767.9270848714427,211.131338575842
1771.635555442485,212.78356071537883
1775.344026013527,214.4617636436894
1779.052496584569,216.1662709817029
1782.760967155611,217.89708412350956
1786.4694377266533,219.6542148115536
1790.1779082976952,221.4375578908595
1793.8863788687374,223.24691407745345
1797.5948494397794,225.0820990862278
1801.3033200108216,226.9426229371561
1805.011790581864,228.82796876674456
1808.7202611529056,230.7376224128631
1812.428731723948,232.6710714182966
1816.13720229499,234.62772199058983
1819.845672866032,236.6068969439517
1823.554143437074,238.6078338253123
1827.262614008116,240.62974696551916
1830.9710845791583,242.67183962188412
1834.6795551502005,244.7332304694022
1838.3880257212425,246.8132750337205
1842.0964962922844,248.91119491470025
1845.8049668633264,251.02638336511797
1849.5134374343688,253.1580946270995
1853.2219080054108,255.3051857994508
1856.9303785764528,257.46743392334497
1860.638849147495,259.64382266079895
1864.347319718537,261.8336608271409
1868.0557902895791,264.03647869989686
1871.764260860621,266.25161255071475
1875.4727314316635,268.4783823834533
1879.1812020027053,270.71615036350727
1882.8896725737477,272.9642783469056
1886.5981431447892,275.2221285912715
1890.306613715832,277.4890630323432
1894.0150842868736,279.76444540338696
1897.723554857916,282.0476376681642
1901.4320254289576,284.3379909546041
1905.140496,286.63488133857686
