charge,dose
47.201458957818566,0.0
49.97434796343662,0.0002
50.47434796343662,0.02516058638903208
51.69692141891784,0.0381015815975195
55.28704135783568,0.0761031631950391
58.87716129675351,0.1141047447925585
62.467281235671344,0.1521063263900781
66.05740117458919,0.1883429622187769
69.64752111350701,0.2249895015353263
73.23764105242485,0.2621509754928444
76.82776099134269,0.2998314329139711
80.41788093026052,0.338034922621347
84.00800086917836,0.3767654934376128
87.59812080809618,0.4160271941854084
91.18824074701402,0.4558240736873746
94.77836068593186,0.4961601807661518
98.3684806248497,0.5370395642443804
101.95860056376752,0.5784662729447008
105.54872050268536,0.6241034008107554
109.1388404416032,0.6732767580453569
112.72896038052104,0.7230095869699713
116.31908031943888,0.7733059364072393
119.90920025835672,0.8241698551798011
123.49932019727454,0.8756053921102971
127.08944013619238,0.927616596021368
130.6795600751102,0.9802075157356538
134.26968001402804,1.0333822000757953
137.85979995294588,1.0871446978644244
141.44991989186371,1.141400508819972
145.04003983078155,1.196493820742556
148.6301597696994,1.2583066667969236
152.22027970861723,1.320808077851554
155.81039964753506,1.384037582232326
159.4005195864529,1.4480179910441833
162.99063952537074,1.5127706323433985
166.58075946428858,1.578315891075711
170.1708794032064,1.6445400272558512
173.76099934212425,1.7114017660304186
177.3511192810421,1.7788760990747607
180.94123921995995,1.8512643582717936
184.53135915887776,1.924925472870802
188.1214790977956,1.999041422781854
191.71159903671344,2.0736416110491014
195.30171897563125,2.1487777334288745
198.89183891454908,2.224498244211773
202.4819588534669,2.3007950966813806
206.0720787923848,2.377558929799448
209.6621987313026,2.457949630068275
213.25231867022043,2.539146716845603
216.84243860913827,2.6207925748668446
220.4325585480561,2.7028960372007265
224.02267848697397,2.7854853759220832
227.61279842589175,2.868575091624006
231.2029183648096,2.952164431181731
234.79303830372743,3.03839375630744
238.3831582426453,3.1263174227906583
241.97327818156316,3.2147384537553827
245.56339812048097,3.301296122183119
249.1535180593988,3.3930695966302893
252.7436379983166,3.482978202290941
256.33375793723445,3.57338115993404
259.9238778761523,3.667201769125337
263.5139978150701,3.7617314980885537
267.104117753988,3.8567533196599206
270.6942376929058,3.952266480714673
274.28435763182364,4.048270228128046
277.8744775707415,4.1447638087752745
281.4645975096593,4.243685470557709
285.05471744857715,4.344080230685403
288.644837387495,4.4449625310054754
292.2349573264128,4.546331618393161
295.82507726533066,4.648186739723695
299.4151972042485,4.750527141872312
303.00531714316634,4.855432340942231
306.5954370820842,4.961484776222148
310.185557021002,5.0680202329458535
313.77567695991985,5.175037957988582
317.3657968988377,5.282537198225568
320.9559168377555,5.390925153032274
324.54603677667336,5.501981464843443
328.1361567155912,5.613517032474574
331.72627665450904,5.725531102800902
335.3163965934269,5.838022922697662
338.90651653234465,5.950991739040088
342.4966364712625,6.066448288541514
346.0867564101803,6.18283250649018
349.67687634909817,6.299691461510218
353.266996288016,6.417024400476864
356.85711622693384,6.534830570265351
360.4472361658517,6.654760394330999
364.0373561047695,6.775864731958161
367.62747604368735,6.897440041032871
371.2175959826052,7.019485568430362
374.807715921523,7.141999973960218
378.39783586044086,7.266631612816004
381.9879557993587,7.392166773632617
385.5780757382765,7.518143410096338
389.1681956771944,7.644556090021593
392.7583156161122,7.771471077097596
396.3484355550301,7.900805183163049
399.9385554939479,8.030571656454295
403.5286754328657,8.16077306563982
407.1187953717836,8.291413673214333
410.7089153107014,8.423448589181625
414.2990352496192,8.557176763705915
417.8891551885371,8.691365892838089
421.4792751274549,8.826025826420485
425.0693950663728,8.961167520408337
428.6595150052906,9.099205874319916
432.2496349442084,9.2377913863141
435.8397548831263,9.376897031687346
439.4298748220441,9.516537065542307
443.01999476096194,9.658568308767965
446.6101146998798,9.80199206626092
450.2002346387976,9.945995847080724
453.7903545777154,10.090595465137785
457.3804745166332,10.23740594660396
460.9705944555511,10.386124840316391
464.5607143944689,10.535487367257693
468.15083433338674,10.685509240002334
471.7409542723046,10.837919126579672
475.3310742112224,10.992262433333645
478.92119415014025,11.147310182891967
482.5113140890581,11.303076406545486
486.1014340279759,11.461825472843495
489.69155396689376,11.62205214553452
493.2816739058116,11.783035070782034
496.87179384472944,11.944987097116648
500.4619137836473,12.11039075786099
504.0520337225651,12.27658007386792
507.64215366148295,12.443562573647265
511.2322736004008,12.612775753639289
514.8223935393187,12.784157575584386
518.4125134782364,12.9563475449653
522.0026334171544,13.129527118853918
525.5927533560721,13.305924847685215
529.18287329499,13.483131155935087
532.7729932339078,13.66114290614308
536.3631131728257,13.841701593816513
539.9532331117434,14.023711623216991
543.5433530506614,14.206506352687311
547.1334729895791,14.39112167239362
550.723592928497,14.577673304499305
554.3137128674148,14.764970366288
557.9038328063327,14.953605154640863
561.4939527452505,15.14443124499691
565.0840726841684,15.335970674234089
568.6741926230861,15.528579102391763
572.2643125620041,15.723500021873978
575.8544325009218,15.91911542442875
579.4445524398398,16.115676194722482
583.0346723787575,16.31454259906267
586.6247923176754,16.514084630666872
590.2149122565932,16.714559421395357
593.8050321955111,16.91721972133471
597.3951521344288,17.12053679272951
600.9852720733468,17.324871079224472
604.5753920122645,17.531222240492546
608.1655119511825,17.73821131740753
611.7556318901002,17.94635689390372
615.3457518290181,18.156224819970006
618.9358717679359,18.36671180587464
622.5259917068538,18.57856675027808
626.1161116457715,18.79184292646658
629.7062315846892,19.005719306684867
633.2963515236072,19.221217148553983
636.8864714625249,19.437785398325374
640.4765914014429,19.654934996318023
644.0667113403606,19.87398192682728
647.6568312792785,20.09371444358216
651.2469512181963,20.31427802339206
654.8370711571142,20.536516310457465
658.427191096032,20.7593045193965
662.0173110349499,20.98330927715469
665.6074309738676,21.208517537999736
669.1975509127856,21.434256864909884
672.7876708517033,21.66159270355828
676.3777907906212,21.88964580712826
679.967910729539,22.1184802444677
683.5580306684569,22.34880698038745
687.1481506073746,22.579633356024694
690.7382705462926,22.811674976845623
694.3283904852103,23.044657205118902
697.9185104241283,23.278152079722915
701.508630363046,23.513146565786805
705.098750301964,23.74857269293669
708.6888702408817,23.984918937850328
712.2789901797996,24.22219517777945
715.8691101187173,24.45987092903372
719.4592300576353,24.698864260929817
723.049349996553,24.93828481399725
726.639469935471,25.17841613006441
730.2295898743887,25.41929777381082
733.8197098133066,25.660510256097027
737.4098297522244,25.90264612112226
740.9999496911423,26.145126349482325
744.59006963006,26.388263443046085
748.180189568978,26.63209424426473
751.7703095078957,26.87630604821805
755.3604294468137,27.1217894575761
758.9505493857314,27.367698353581297
762.5406693246493,27.614737720405778
766.1307892635671,27.862784102390343
769.720909202485,28.11161308089966
773.3110291414027,28.36235594809707
776.9011490803207,28.613761859316988
780.4912690192384,28.867373050825694
784.0813889581564,29.12225064784152
787.6715088970741,29.378887646843125
791.261628835992,29.637822272120346
794.8517487749098,29.897962157348324
798.4418687138277,30.16171135545464
802.0319886527454,30.4265672117336
805.6221085916634,30.69505557849468
809.2122285305811,30.965332825328595
812.8023484694991,31.238922438629046
816.3924684084168,31.515204535725417
819.9825883473347,31.794496781979028
823.5727082862525,32.077280703241314
827.1628282251704,32.36283002377783
830.7529481640881,32.652406699140386
834.3430681030061,32.9446820730396
837.9331880419238,33.2413419771262
841.5233079808418,33.540789437646595
845.1134279197595,33.844727779062055
848.7035478586774,34.151693243060365
852.2936677975952,34.463007357425866
855.8837877365129,34.777736349538884
859.4739076754308,35.096474340758874
863.0640276143486,35.41908948044504
866.6541475532665,35.74514504215318
870.2442674921842,36.0755711115629
873.8343874311022,36.40872112930663
877.4245073700199,36.746857956320326
881.0146273089379,37.08758631507908
884.6047472478556,37.43255469896643
888.1948671867735,37.78064337273708
891.7849871256913,38.1318768738486
895.3751070646092,38.486872671009095
898.9652270035269,38.84439261688972
902.5553469424448,39.20576620064757
906.1454668813626,39.56983366393376
909.7355868202806,39.93658614813935
913.3257067591984,40.30681692076537
916.9158266981162,40.67939311861406
920.505946637034,41.05502475562221
924.096066575952,41.43344301471919
927.6861865148696,41.81412001513229
931.2763064537876,42.19797152449999
934.8664263927052,42.58420537582636
938.4565463316231,42.97260689829531
942.046666270541,43.36410529501659
945.6367862094588,43.75774036756599
949.2269061483768,44.15345414467298
952.8170260872946,44.55206164253072
956.4071460262124,44.95266803740512
959.9972659651304,45.355256161183874
963.587385904048,45.76045622237929
967.177505842966,46.16759268489534
970.7676257818836,46.57659850002173
974.3577457208016,46.987890399105794
977.9478656597194,47.40109235373362
981.5379855986372,47.816026448153096
985.128105537555,48.23292414407759
988.718225476473,48.65164289601819
992.3083454153908,49.0719329523362
995.8984653543088,49.49384978421185
999.4885852932264,49.917529018882085
1003.0787052321444,50.342617584347416
1006.668825171062,50.76908233646783
1010.25894510998,51.19710215485462
1013.8490650488976,51.626454101711445
1017.4391849878156,52.05703179451832
1021.0293049267334,52.4888719171679
1024.6194248656514,52.92209477111567
1028.209544804569,53.35641898908732
1031.799664743487,53.79184073648228
1035.3897846824048,54.22849731400902
1038.9799046213227,54.6663143825908
1042.5700245602404,55.10516880688786
1046.1601444991584,55.54506741380094
1049.750264438076,55.98619450847982
1053.340384376994,56.42839910053768
1056.9305043159118,56.87164060603912
1060.5206242548295,57.31594628740534
1064.1107441937477,57.76154623542848
1067.7008641326654,58.20824891151915
1071.2909840715831,58.65605657202818
1074.881104010501,59.10501258938231
1078.4712239494188,59.55540571031143
1082.0613438883368,60.007024478817314
1085.6514638272545,60.4598924466239
1089.2415837661724,60.914067776868336
1092.83170370509,61.36983165525034
1096.421823644008,61.82706099766609
1100.0119435829258,62.28575885676861
1103.6020635218438,62.74598149586716
1107.1921834607615,63.2078962861937
1110.7823033996794,63.67166917000928
1114.3724233385972,64.13716681214521
1117.9625432775151,64.6044405993199
1121.5526632164328,65.07354274652553
1125.1427831553508,65.54482902992999
1128.7329030942683,66.01816746735912
1132.3230230331865,66.49359563741595
1135.9131429721042,66.97115411740938
1139.503262911022,67.45086223783254
1143.09338284994,67.93310613569369
1146.6835027888578,68.41766415679692
1150.2736227277755,68.90464454173582
1153.8637426666935,69.3940792420506
1157.4538626056112,69.88594563413966
1161.0439825445292,70.38049010396264
1164.634102483447,70.87770558170206
1168.2242224223648,71.37756761288497
1171.8143423612826,71.88015989815375
1175.4044623002003,72.38551612692255
1178.9945822391182,72.893630473967
1182.5847021780362,73.40462872335758
1186.174822116954,73.91868835155415
1189.764942055872,74.4356741663351
1193.3550619947896,74.95569503704036
1196.9451819337075,75.47877846565541
1200.5353018726253,76.00495106116635
1204.125421811543,76.53428655455878
1207.715541750461,77.06686796091917
1211.305661689379,77.60273424175
1214.8957816282966,78.14209231296255
1218.4859015672143,78.68480995221458
1222.0760215061323,79.23096059994016
1225.66614144505,79.78062853148627
1229.256261383968,80.33384148879824
1232.8463813228857,80.89063668486477
1236.4365012618036,81.45107007427772
1240.0266212007214,82.01519738896079
1243.616741139639,82.5830740909725
1247.206861078557,83.15475929362898
1250.796981017475,83.73031695021439
1254.3871009563927,84.30980838582059
1257.977220895311,84.89329287908919
1261.5673408342284,85.4808294146204
1265.1574607731463,86.0724766988647
1268.747580712064,86.6682934555716
1272.337700650982,87.26833861873715
1275.9278205898995,87.87266717599948
1279.5179405288177,88.48132898415699
1283.1080604677354,89.09437168212307
1286.6981804066534,89.71183957913038
1290.288300345571,90.33377187100037
1293.878420284489,90.96020252065787
1297.4685402234068,91.59116065202387
1301.0586601623247,92.2266709429491
1304.6487801012424,92.86675401463928
1308.2389000401604,93.51142681517916
1311.829019979078,94.16077363249175
1315.419139917996,94.81488445136956
1319.0092598569138,95.47366940582012
1322.5993797958315,96.13720970186348
1326.1894997347497,96.80551874338056
1329.7796196736674,97.47848983201702
1333.3697396125851,98.15612333549454
1336.959859551503,98.8384187055126
1340.5499794904208,99.5255908058336
1344.1400994293388,100.21760695454606
1347.7302193682565,100.91444454331004
1351.3203393071744,101.6161251405002
1354.9104592460922,102.32248464220136
1358.50057918501,103.03364249567204
1362.0906991239278,103.74979532409074
1365.6808190628458,104.47081120773724
1369.2709390017635,105.19679422851402
1372.8610589406817,105.92752587149909
1376.4511788795992,106.66329406102876
1380.0412988185171,107.4040443810346
1383.6314187574349,108.1499017142559
1387.2215386963528,108.90065575884444
1390.8116586352703,109.65657704224682
1394.4017785741885,110.41759367380934
1397.9918985131062,111.18385267391928
1401.5820184520242,111.9552617478998
1405.172138390942,112.73198066721756
1408.7622583298598,113.51407545420273
1412.3523782687776,114.30153788165131
1415.9424982076955,115.09445708802528
1419.5326181466132,115.8929577216634
1423.1227380855312,116.69710790875406
1426.712858024449,117.50682791211834
1430.3029779633666,118.3224973691572
1433.8930979022846,119.1440085568514
1437.4832178412023,119.97131777899432
1441.0733377801205,120.805042375398
1444.663457719038,121.64449055188648
1448.253577657956,122.49054362284254
1451.8436975968737,123.34263457479454
1455.4338175357916,124.20125677266611
1459.023937474709,125.06644615890836
1462.6140574136273,125.93792870191196
1466.204177352545,126.81648434972648
1469.794297291463,127.701282614682
1473.384417230381,128.59344600227206
1476.9745371692986,129.49199385006438
1480.5646571082164,130.39797885063496
1484.1547770471343,131.3106984320122
1487.744896986052,132.2307568404205
1491.33501692497,133.15799995442703
1494.9251368638877,134.0924756258634
1498.5152568028057,135.03446659477345
1502.1053767417234,135.983674416047
1505.695496680641,136.9408038587062
1509.285616619559,137.90519627268822
1512.875736558477,138.8775889589356
1516.4658564973947,139.8576819858488
1520.055976436313,140.84546103936475
1523.6460963752304,141.84153123629608
1527.2362163141484,142.8454120087846
1530.826336253066,143.85734698043996
1534.416456191984,144.87773945873425
1538.0065761309015,145.90626521394142
1541.5966960698197,146.94298189105243
1545.1868160087374,147.98829281823916
1548.7769359476554,149.04230189810727
1552.367055886573,150.1047742425618
1555.957175825491,151.17582847976595
1559.5472957644088,152.25562966810529
1563.1374157033267,153.34423165953598
1566.7275356422444,154.4420172389409
1570.3176555811624,155.54876686726766
1573.90777552008,156.66457683787553
1577.497895458998,157.78952673228792
1581.0880153979158,158.92354290077333
1584.6781353368335,160.0665514254081
1588.2682552757517,161.2185223148279
1591.8583752146694,162.3794654669786
1595.4484951535871,163.54939629177406
1599.038615092505,164.72816012067295
1602.6287350314228,165.91552624580964
1606.2188549703408,167.1113601134203
1609.8089749092585,168.31565082376906
1613.3990948481764,169.52849991045412
1616.9892147870942,170.75003196349434
1620.579334726012,171.98035880489618
1624.1694546649298,173.21970398626075
1627.7595746038478,174.4684260446233
1631.3496945427655,175.72700581927262
1634.9398144816837,176.99603466915312
1638.5299344206012,178.27622231541648
1642.1200543595191,179.56830184865967
1645.7101742984369,180.8732326532714
1649.3002942373548,182.19180893007368
1652.8904141762723,183.52503675958667
1656.4805341151905,184.8740633642796
1660.0706540541082,186.23977405932573
1663.660773993026,187.62361926269097
1667.250893931944,189.02618444673416
1670.8410138708616,190.4487768753598
1674.4311338097796,191.89336590905185
1678.0212537486973,193.35904918245072
1681.6113736876152,194.84997528482003
1685.201493626533,196.3637532381091
1688.791613565451,197.90455934678067
1692.3817335043686,199.47135518762423
1695.9718534432866,201.06523082992243
1699.5619733822043,202.6885332792345
1703.1520933211225,204.34068301808415
1706.74221326004,206.02267902630888
1710.332333198958,207.73546941134288
1713.9224531378757,209.47994479845852
1717.5125730767936,211.2562917014624
1721.102693015711,213.06484705289785
1724.6928129546293,214.90608647040767
1728.282932893547,216.7802103885111
1731.873052832465,218.68730484309728
1735.4631727713827,220.62747813001465
1739.0532927103006,222.60026555012388
1742.6434126492184,224.6057566260648
1746.2335325881363,226.6434745008293
1749.823652527054,228.71286029007663
1753.413772465972,230.8135306065363
1757.0038924048897,232.9442206590737
1760.5940123438077,235.10457982649243
1764.1841322827254,237.29445004286785
1767.774252221643,239.51104281562124
1771.364372160561,241.75339140138828
1774.954492099479,244.0202155283843
1778.5446120383967,246.3116187213485
1782.1347319773147,248.6260150085762
1785.7248519162324,250.96121750827731
1789.3149718551504,253.3163791579849
1792.905091794068,255.6906758618809
1796.495211732986,258.0831448144151
1800.0853316719038,260.4929049521229
1803.6754516108217,262.9190752298316
1807.2655715497397,265.3607746195805
1810.8556914886572,267.8171221096809
1814.445811427575,270.28723670389985
1818.035931366493,272.77023742075585
1821.6260513054108,275.26524329291794
1825.2161712443287,277.7713733666998
1828.8062911832465,280.28774670163955
1832.3964111221644,282.813482370164
1835.986531061082,285.3476994573256
1839.576651,287.8895170606158
